Time (ms),Spikeling Vm (mV),Stimulus (%),Total Current Input (a.u.),Synapse 1 Vm (mV),Synapse 1 Input (a.u.),Synapse 2 Vm (mV),Synapse 2 Input (a.u.),Trigger
0,-87.49971505,0,0,-65,0,-65,0,0
0.1,-87.49971559,0,0,-65,0,-65,0,0
0.2,-87.49971613,0,0,-65,0,-65,0,0
0.3,-87.49971667,0,0,-65,0,-65,0,0
0.4,-87.4997172,0,0,-65,0,-65,0,0
0.5,-87.49971774,0,0,-65,0,-65,0,0
0.6,-87.49971828,0,0,-65,0,-65,0,0
0.7,-87.49971881,0,0,-65,0,-65,0,0
0.8,-87.49971935,0,0,-65,0,-65,0,0
0.9,-87.49971988,0,0,-65,0,-65,0,0
1,-87.49972041,0,0,-65,0,-65,0,0
1.1,-87.49972094,0,0,-65,0,-65,0,0
1.2,-87.49972147,0,0,-65,0,-65,0,0
1.3,-87.499722,0,0,-65,0,-65,0,0
1.4,-87.49972253,0,0,-65,0,-65,0,0
1.5,-87.49972306,0,0,-65,0,-65,0,0
1.6,-87.49972358,0,0,-65,0,-65,0,0
1.7,-87.49972411,0,0,-65,0,-65,0,0
1.8,-87.49972463,0,0,-65,0,-65,0,0
1.9,-87.49972515,0,0,-65,0,-65,0,0
2,-87.49972568,0,0,-65,0,-65,0,0
2.1,-87.4997262,0,0,-65,0,-65,0,0
2.2,-87.49972672,0,0,-65,0,-65,0,0
2.3,-87.49972724,0,0,-65,0,-65,0,0
2.4,-87.49972775,0,0,-65,0,-65,0,0
2.5,-87.49972827,0,0,-65,0,-65,0,0
2.6,-87.49972879,0,0,-65,0,-65,0,0
2.7,-87.4997293,0,0,-65,0,-65,0,0
2.8,-87.49972982,0,0,-65,0,-65,0,0
2.9,-87.49973033,0,0,-65,0,-65,0,0
3,-87.49973084,0,0,-65,0,-65,0,0
3.1,-87.49973135,0,0,-65,0,-65,0,0
3.2,-87.49973186,0,0,-65,0,-65,0,0
3.3,-87.49973237,0,0,-65,0,-65,0,0
3.4,-87.49973288,0,0,-65,0,-65,0,0
3.5,-87.49973339,0,0,-65,0,-65,0,0
3.6,-87.49973389,0,0,-65,0,-65,0,0
3.7,-87.4997344,0,0,-65,0,-65,0,0
3.8,-87.4997349,0,0,-65,0,-65,0,0
3.9,-87.49973541,0,0,-65,0,-65,0,0
4,-87.49973591,0,0,-65,0,-65,0,0
4.1,-87.49973641,0,0,-65,0,-65,0,0
4.2,-87.49973691,0,0,-65,0,-65,0,0
4.3,-87.49973741,0,0,-65,0,-65,0,0
4.4,-87.49973791,0,0,-65,0,-65,0,0
4.5,-87.49973841,0,0,-65,0,-65,0,0
4.6,-87.49973891,0,0,-65,0,-65,0,0
4.7,-87.4997394,0,0,-65,0,-65,0,0
4.8,-87.4997399,0,0,-65,0,-65,0,0
4.9,-87.49974039,0,0,-65,0,-65,0,0
5,-87.49974088,0,0,-65,0,-65,0,0
5.1,-87.49974138,0,0,-65,0,-65,0,0
5.2,-87.49974187,0,0,-65,0,-65,0,0
5.3,-87.49974236,0,0,-65,0,-65,0,0
5.4,-87.49974285,0,0,-65,0,-65,0,0
5.5,-87.49974334,0,0,-65,0,-65,0,0
5.6,-87.49974382,0,0,-65,0,-65,0,0
5.7,-87.49974431,0,0,-65,0,-65,0,0
5.8,-87.49974479,0,0,-65,0,-65,0,0
5.9,-87.49974528,0,0,-65,0,-65,0,0
6,-87.49974576,0,0,-65,0,-65,0,0
6.1,-87.49974625,0,0,-65,0,-65,0,0
6.2,-87.49974673,0,0,-65,0,-65,0,0
6.3,-87.49974721,0,0,-65,0,-65,0,0
6.4,-87.49974769,0,0,-65,0,-65,0,0
6.5,-87.49974817,0,0,-65,0,-65,0,0
6.6,-87.49974865,0,0,-65,0,-65,0,0
6.7,-87.49974912,0,0,-65,0,-65,0,0
6.8,-87.4997496,0,0,-65,0,-65,0,0
6.9,-87.49975008,0,0,-65,0,-65,0,0
7,-87.49975055,0,0,-65,0,-65,0,0
7.1,-87.49975102,0,0,-65,0,-65,0,0
7.2,-87.4997515,0,0,-65,0,-65,0,0
7.3,-87.49975197,0,0,-65,0,-65,0,0
7.4,-87.49975244,0,0,-65,0,-65,0,0
7.5,-87.49975291,0,0,-65,0,-65,0,0
7.6,-87.49975338,0,0,-65,0,-65,0,0
7.7,-87.49975385,0,0,-65,0,-65,0,0
7.8,-87.49975432,0,0,-65,0,-65,0,0
7.9,-87.49975478,0,0,-65,0,-65,0,0
8,-87.49975525,0,0,-65,0,-65,0,0
8.1,-87.49975571,0,0,-65,0,-65,0,0
8.2,-87.49975618,0,0,-65,0,-65,0,0
8.3,-87.49975664,0,0,-65,0,-65,0,0
8.4,-87.4997571,0,0,-65,0,-65,0,0
8.5,-87.49975756,0,0,-65,0,-65,0,0
8.6,-87.49975802,0,0,-65,0,-65,0,0
8.7,-87.49975848,0,0,-65,0,-65,0,0
8.8,-87.49975894,0,0,-65,0,-65,0,0
8.9,-87.4997594,0,0,-65,0,-65,0,0
9,-87.49975986,0,0,-65,0,-65,0,0
9.1,-87.49976031,0,0,-65,0,-65,0,0
9.2,-87.49976077,0,0,-65,0,-65,0,0
9.3,-87.49976122,0,0,-65,0,-65,0,0
9.4,-87.49976168,0,0,-65,0,-65,0,0
9.5,-87.49976213,0,0,-65,0,-65,0,0
9.6,-87.49976258,0,0,-65,0,-65,0,0
9.7,-87.49976303,0,0,-65,0,-65,0,0
9.8,-87.49976348,0,0,-65,0,-65,0,0
9.9,-87.49976393,0,0,-65,0,-65,0,0
10,-87.49976438,0,0,-65,0,-65,0,0
10.1,-87.49976483,0,0,-65,0,-65,0,0
10.2,-87.49976527,0,0,-65,0,-65,0,0
10.3,-87.49976572,0,0,-65,0,-65,0,0
10.4,-87.49976616,0,0,-65,0,-65,0,0
10.5,-87.49976661,0,0,-65,0,-65,0,0
10.6,-87.49976705,0,0,-65,0,-65,0,0
10.7,-87.49976749,0,0,-65,0,-65,0,0
10.8,-87.49976794,0,0,-65,0,-65,0,0
10.9,-87.49976838,0,0,-65,0,-65,0,0
11,-87.49976882,0,0,-65,0,-65,0,0
11.1,-87.49976926,0,0,-65,0,-65,0,0
11.2,-87.49976969,0,0,-65,0,-65,0,0
11.3,-87.49977013,0,0,-65,0,-65,0,0
11.4,-87.49977057,0,0,-65,0,-65,0,0
11.5,-87.499771,10,10,-65,0,-65,0,0
11.6,-86.49977144,10,10,-65,0,-65,0,0
11.7,-85.69575004,10,10,-65,0,-65,0,0
11.8,-85.04347753,10,10,-65,0,-65,0,0
11.9,-84.51049385,10,10,-65,0,-65,0,0
12,-84.07243684,10,10,-65,0,-65,0,0
12.1,-83.71067894,10,10,-65,0,-65,0,0
12.2,-83.41075432,10,10,-65,0,-65,0,0
12.3,-83.16128164,10,10,-65,0,-65,0,0
12.4,-82.95320741,10,10,-65,0,-65,0,0
12.5,-82.77926274,10,10,-65,0,-65,0,0
12.6,-82.63356566,10,10,-65,0,-65,0,0
12.7,-82.51132479,10,10,-65,0,-65,0,0
12.8,-82.40861512,10,10,-65,0,-65,0,0
12.9,-82.32220608,10,10,-65,0,-65,0,0
13,-82.24942788,10,10,-65,0,-65,0,0
13.1,-82.18806668,10,10,-65,0,-65,0,0
13.2,-82.13628137,10,10,-65,0,-65,0,0
13.3,-82.09253709,10,10,-65,0,-65,0,0
13.4,-82.05555163,10,10,-65,0,-65,0,0
13.5,-82.02425195,10,10,-65,0,-65,0,0
13.6,-81.99773874,10,10,-65,0,-65,0,0
13.7,-81.97525733,10,10,-65,0,-65,0,0
13.8,-81.95617377,10,10,-65,0,-65,0,0
13.9,-81.93995501,10,10,-65,0,-65,0,0
14,-81.92615254,10,10,-65,0,-65,0,0
14.1,-81.91438869,10,10,-65,0,-65,0,0
14.2,-81.90434531,10,10,-65,0,-65,0,0
14.3,-81.89575424,10,10,-65,0,-65,0,0
14.4,-81.88838938,10,10,-65,0,-65,0,0
14.5,-81.88206002,10,10,-65,0,-65,0,0
14.6,-81.87660524,10,10,-65,0,-65,0,0
14.7,-81.87188927,10,10,-65,0,-65,0,0
14.8,-81.8677975,10,10,-65,0,-65,0,0
14.9,-81.86423316,10,10,-65,0,-65,0,0
15,-81.86111456,10,10,-65,0,-65,0,0
15.1,-81.8583727,10,10,-65,0,-65,0,0
15.2,-81.85594933,10,10,-65,0,-65,0,0
15.3,-81.85379523,10,10,-65,0,-65,0,0
15.4,-81.85186882,10,10,-65,0,-65,0,0
15.5,-81.85013501,10,10,-65,0,-65,0,0
15.6,-81.84856411,10,10,-65,0,-65,0,0
15.7,-81.84713107,10,10,-65,0,-65,0,0
15.8,-81.84581472,10,10,-65,0,-65,0,0
15.9,-81.84459715,10,10,-65,0,-65,0,0
16,-81.84346327,10,10,-65,0,-65,0,0
16.1,-81.84240028,10,10,-65,0,-65,0,0
16.2,-81.8413974,10,10,-65,0,-65,0,0
16.3,-81.84044551,10,10,-65,0,-65,0,0
16.4,-81.83953689,10,10,-65,0,-65,0,0
16.5,-81.83866505,10,10,-65,0,-65,0,0
16.6,-81.83782446,10,10,-65,0,-65,0,0
16.7,-81.83701048,10,10,-65,0,-65,0,0
16.8,-81.83621919,10,10,-65,0,-65,0,0
16.9,-81.83544724,10,10,-65,0,-65,0,0
17,-81.83469185,10,10,-65,0,-65,0,0
17.1,-81.83395062,10,10,-65,0,-65,0,0
17.2,-81.83322157,10,10,-65,0,-65,0,0
17.3,-81.83250299,10,10,-65,0,-65,0,0
17.4,-81.83179344,10,10,-65,0,-65,0,0
17.5,-81.83109172,10,10,-65,0,-65,0,0
17.6,-81.8303968,10,10,-65,0,-65,0,0
17.7,-81.82970782,10,10,-65,0,-65,0,0
17.8,-81.82902404,10,10,-65,0,-65,0,0
17.9,-81.82834484,10,10,-65,0,-65,0,0
18,-81.8276697,10,10,-65,0,-65,0,0
18.1,-81.82699818,10,10,-65,0,-65,0,0
18.2,-81.82632991,10,10,-65,0,-65,0,0
18.3,-81.82566455,10,10,-65,0,-65,0,0
18.4,-81.82500186,10,10,-65,0,-65,0,0
18.5,-81.82434159,10,10,-65,0,-65,0,0
18.6,-81.82368356,10,10,-65,0,-65,0,0
18.7,-81.8230276,10,10,-65,0,-65,0,0
18.8,-81.82237359,10,10,-65,0,-65,0,0
18.9,-81.82172139,10,10,-65,0,-65,0,0
19,-81.82107091,10,10,-65,0,-65,0,0
19.1,-81.82042207,10,10,-65,0,-65,0,0
19.2,-81.81977479,10,10,-65,0,-65,0,0
19.3,-81.81912901,10,10,-65,0,-65,0,0
19.4,-81.81848469,10,10,-65,0,-65,0,0
19.5,-81.81784178,10,10,-65,0,-65,0,0
19.6,-81.81720024,10,10,-65,0,-65,0,0
19.7,-81.81656004,10,10,-65,0,-65,0,0
19.8,-81.81592115,10,10,-65,0,-65,0,0
19.9,-81.81528354,10,10,-65,0,-65,0,0
20,-81.81464721,10,10,-65,0,-65,0,0
20.1,-81.81401212,10,10,-65,0,-65,0,0
20.2,-81.81337827,10,10,-65,0,-65,0,0
20.3,-81.81274565,10,10,-65,0,-65,0,0
20.4,-81.81211423,10,10,-65,0,-65,0,0
20.5,-81.81148402,10,10,-65,0,-65,0,0
20.6,-81.810855,10,10,-65,0,-65,0,0
20.7,-81.81022716,10,10,-65,0,-65,0,0
20.8,-81.8096005,10,10,-65,0,-65,0,0
20.9,-81.80897502,10,10,-65,0,-65,0,0
21,-81.8083507,10,10,-65,0,-65,0,0
21.1,-81.80772754,10,10,-65,0,-65,0,0
21.2,-81.80710554,10,10,-65,0,-65,0,0
21.3,-81.80648469,10,10,-65,0,-65,0,0
21.4,-81.80586499,10,10,-65,0,-65,0,0
21.5,-81.80524644,10,10,-65,0,-65,0,0
21.6,-81.80462903,10,10,-65,0,-65,0,0
21.7,-81.80401276,10,10,-65,0,-65,0,0
21.8,-81.80339763,10,10,-65,0,-65,0,0
21.9,-81.80278363,10,10,-65,0,-65,0,0
22,-81.80217076,10,10,-65,0,-65,0,0
22.1,-81.80155902,10,10,-65,0,-65,0,0
22.2,-81.8009484,10,10,-65,0,-65,0,0
22.3,-81.80033891,10,10,-65,0,-65,0,0
22.4,-81.79973054,10,10,-65,0,-65,0,0
22.5,-81.79912329,10,10,-65,0,-65,0,0
22.6,-81.79851716,10,10,-65,0,-65,0,0
22.7,-81.79791214,10,10,-65,0,-65,0,0
22.8,-81.79730824,10,10,-65,0,-65,0,0
22.9,-81.79670544,10,10,-65,0,-65,0,0
23,-81.79610375,10,10,-65,0,-65,0,0
23.1,-81.79550317,10,10,-65,0,-65,0,0
23.2,-81.79490369,10,10,-65,0,-65,0,0
23.3,-81.79430532,10,10,-65,0,-65,0,0
23.4,-81.79370804,10,10,-65,0,-65,0,0
23.5,-81.79311186,10,10,-65,0,-65,0,0
23.6,-81.79251678,10,10,-65,0,-65,0,0
23.7,-81.79192279,10,10,-65,0,-65,0,0
23.8,-81.79132989,10,10,-65,0,-65,0,0
23.9,-81.79073809,10,10,-65,0,-65,0,0
24,-81.79014737,10,10,-65,0,-65,0,0
24.1,-81.78955773,10,10,-65,0,-65,0,0
24.2,-81.78896918,10,10,-65,0,-65,0,0
24.3,-81.78838171,10,10,-65,0,-65,0,0
24.4,-81.78779533,10,10,-65,0,-65,0,0
24.5,-81.78721001,10,10,-65,0,-65,0,0
24.6,-81.78662578,10,10,-65,0,-65,0,0
24.7,-81.78604262,10,10,-65,0,-65,0,0
24.8,-81.78546053,10,10,-65,0,-65,0,0
24.9,-81.78487951,10,10,-65,0,-65,0,0
25,-81.78429956,10,10,-65,0,-65,0,0
25.1,-81.78372068,10,10,-65,0,-65,0,0
25.2,-81.78314286,10,10,-65,0,-65,0,0
25.3,-81.7825661,10,10,-65,0,-65,0,0
25.4,-81.7819904,10,10,-65,0,-65,0,0
25.5,-81.78141576,10,10,-65,0,-65,0,0
25.6,-81.78084218,10,10,-65,0,-65,0,0
25.7,-81.78026965,10,10,-65,0,-65,0,0
25.8,-81.77969817,10,10,-65,0,-65,0,0
25.9,-81.77912775,10,10,-65,0,-65,0,0
26,-81.77855837,10,10,-65,0,-65,0,0
26.1,-81.77799005,10,10,-65,0,-65,0,0
26.2,-81.77742276,10,10,-65,0,-65,0,0
26.3,-81.77685652,10,10,-65,0,-65,0,0
26.4,-81.77629132,10,10,-65,0,-65,0,0
26.5,-81.77572716,10,10,-65,0,-65,0,0
26.6,-81.77516404,10,10,-65,0,-65,0,0
26.7,-81.77460196,10,10,-65,0,-65,0,0
26.8,-81.7740409,10,10,-65,0,-65,0,0
26.9,-81.77348088,10,10,-65,0,-65,0,0
27,-81.77292189,10,10,-65,0,-65,0,0
27.1,-81.77236393,10,10,-65,0,-65,0,0
27.2,-81.77180699,10,10,-65,0,-65,0,0
27.3,-81.77125108,10,10,-65,0,-65,0,0
27.4,-81.77069619,10,10,-65,0,-65,0,0
27.5,-81.77014232,10,10,-65,0,-65,0,0
27.6,-81.76958948,10,10,-65,0,-65,0,0
27.7,-81.76903764,10,10,-65,0,-65,0,0
27.8,-81.76848683,10,10,-65,0,-65,0,0
27.9,-81.76793702,10,10,-65,0,-65,0,0
28,-81.76738823,10,10,-65,0,-65,0,0
28.1,-81.76684045,10,10,-65,0,-65,0,0
28.2,-81.76629367,10,10,-65,0,-65,0,0
28.3,-81.76574791,10,10,-65,0,-65,0,0
28.4,-81.76520314,10,10,-65,0,-65,0,0
28.5,-81.76465938,10,10,-65,0,-65,0,0
28.6,-81.76411662,10,10,-65,0,-65,0,0
28.7,-81.76357486,10,10,-65,0,-65,0,0
28.8,-81.76303409,10,10,-65,0,-65,0,0
28.9,-81.76249432,10,10,-65,0,-65,0,0
29,-81.76195554,10,10,-65,0,-65,0,0
29.1,-81.76141776,10,10,-65,0,-65,0,0
29.2,-81.76088096,10,10,-65,0,-65,0,0
29.3,-81.76034515,10,10,-65,0,-65,0,0
29.4,-81.75981033,10,10,-65,0,-65,0,0
29.5,-81.75927649,10,10,-65,0,-65,0,0
29.6,-81.75874364,10,10,-65,0,-65,0,0
29.7,-81.75821176,10,10,-65,0,-65,0,0
29.8,-81.75768087,10,10,-65,0,-65,0,0
29.9,-81.75715095,10,10,-65,0,-65,0,0
30,-81.75662201,10,10,-65,0,-65,0,0
30.1,-81.75609404,10,10,-65,0,-65,0,0
30.2,-81.75556704,10,10,-65,0,-65,0,0
30.3,-81.75504102,10,10,-65,0,-65,0,0
30.4,-81.75451596,10,10,-65,0,-65,0,0
30.5,-81.75399187,10,10,-65,0,-65,0,0
30.6,-81.75346874,10,10,-65,0,-65,0,0
30.7,-81.75294658,10,10,-65,0,-65,0,0
30.8,-81.75242538,10,10,-65,0,-65,0,0
30.9,-81.75190513,10,10,-65,0,-65,0,0
31,-81.75138585,10,10,-65,0,-65,0,0
31.1,-81.75086752,10,10,-65,0,-65,0,0
31.2,-81.75035015,10,10,-65,0,-65,0,0
31.3,-81.74983372,10,10,-65,0,-65,0,0
31.4,-81.74931825,10,10,-65,0,-65,0,0
31.5,-81.74880373,10,10,-65,0,-65,0,0
31.6,-81.74829016,10,10,-65,0,-65,0,0
31.7,-81.74777753,10,10,-65,0,-65,0,0
31.8,-81.74726585,10,10,-65,0,-65,0,0
31.9,-81.74675511,10,10,-65,0,-65,0,0
32,-81.7462453,10,10,-65,0,-65,0,0
32.1,-81.74573644,10,10,-65,0,-65,0,0
32.2,-81.74522852,10,10,-65,0,-65,0,0
32.3,-81.74472153,10,10,-65,0,-65,0,0
32.4,-81.74421547,10,10,-65,0,-65,0,0
32.5,-81.74371035,10,10,-65,0,-65,0,0
32.6,-81.74320616,10,10,-65,0,-65,0,0
32.7,-81.74270289,10,10,-65,0,-65,0,0
32.8,-81.74220056,10,10,-65,0,-65,0,0
32.9,-81.74169914,10,10,-65,0,-65,0,0
33,-81.74119866,10,10,-65,0,-65,0,0
33.1,-81.74069909,10,10,-65,0,-65,0,0
33.2,-81.74020044,10,10,-65,0,-65,0,0
33.3,-81.73970272,10,10,-65,0,-65,0,0
33.4,-81.73920591,10,10,-65,0,-65,0,0
33.5,-81.73871001,10,10,-65,0,-65,0,0
33.6,-81.73821503,10,10,-65,0,-65,0,0
33.7,-81.73772096,10,10,-65,0,-65,0,0
33.8,-81.7372278,10,10,-65,0,-65,0,0
33.9,-81.73673555,10,10,-65,0,-65,0,0
34,-81.73624421,10,10,-65,0,-65,0,0
34.1,-81.73575377,10,10,-65,0,-65,0,0
34.2,-81.73526424,10,10,-65,0,-65,0,0
34.3,-81.7347756,10,10,-65,0,-65,0,0
34.4,-81.73428787,10,10,-65,0,-65,0,0
34.5,-81.73380104,10,10,-65,0,-65,0,0
34.6,-81.7333151,10,10,-65,0,-65,0,0
34.7,-81.73283006,10,10,-65,0,-65,0,0
34.8,-81.73234592,10,10,-65,0,-65,0,0
34.9,-81.73186266,10,10,-65,0,-65,0,0
35,-81.7313803,10,10,-65,0,-65,0,0
35.1,-81.73089883,10,10,-65,0,-65,0,0
35.2,-81.73041824,10,10,-65,0,-65,0,0
35.3,-81.72993854,10,10,-65,0,-65,0,0
35.4,-81.72945972,10,10,-65,0,-65,0,0
35.5,-81.72898179,10,10,-65,0,-65,0,0
35.6,-81.72850473,10,10,-65,0,-65,0,0
35.7,-81.72802856,10,10,-65,0,-65,0,0
35.8,-81.72755326,10,10,-65,0,-65,0,0
35.9,-81.72707884,10,10,-65,0,-65,0,0
36,-81.7266053,10,10,-65,0,-65,0,0
36.1,-81.72613263,10,10,-65,0,-65,0,0
36.2,-81.72566082,10,10,-65,0,-65,0,0
36.3,-81.72518989,10,10,-65,0,-65,0,0
36.4,-81.72471983,10,10,-65,0,-65,0,0
36.5,-81.72425063,10,10,-65,0,-65,0,0
36.6,-81.7237823,10,10,-65,0,-65,0,0
36.7,-81.72331483,10,10,-65,0,-65,0,0
36.8,-81.72284823,10,10,-65,0,-65,0,0
36.9,-81.72238248,10,10,-65,0,-65,0,0
37,-81.7219176,10,10,-65,0,-65,0,0
37.1,-81.72145357,10,10,-65,0,-65,0,0
37.2,-81.72099039,10,10,-65,0,-65,0,0
37.3,-81.72052807,10,10,-65,0,-65,0,0
37.4,-81.7200666,10,10,-65,0,-65,0,0
37.5,-81.71960599,10,10,-65,0,-65,0,0
37.6,-81.71914622,10,10,-65,0,-65,0,0
37.7,-81.7186873,10,10,-65,0,-65,0,0
37.8,-81.71822923,10,10,-65,0,-65,0,0
37.9,-81.717772,10,10,-65,0,-65,0,0
38,-81.71731562,10,10,-65,0,-65,0,0
38.1,-81.71686007,10,10,-65,0,-65,0,0
38.2,-81.71640537,10,10,-65,0,-65,0,0
38.3,-81.71595151,10,10,-65,0,-65,0,0
38.4,-81.71549848,10,10,-65,0,-65,0,0
38.5,-81.71504629,10,10,-65,0,-65,0,0
38.6,-81.71459493,10,10,-65,0,-65,0,0
38.7,-81.71414441,10,10,-65,0,-65,0,0
38.8,-81.71369471,10,10,-65,0,-65,0,0
38.9,-81.71324585,10,10,-65,0,-65,0,0
39,-81.71279781,10,10,-65,0,-65,0,0
39.1,-81.7123506,10,10,-65,0,-65,0,0
39.2,-81.71190422,10,10,-65,0,-65,0,0
39.3,-81.71145866,10,10,-65,0,-65,0,0
39.4,-81.71101392,10,10,-65,0,-65,0,0
39.5,-81.71057,10,10,-65,0,-65,0,0
39.6,-81.7101269,10,10,-65,0,-65,0,0
39.7,-81.70968462,10,10,-65,0,-65,0,0
39.8,-81.70924315,10,10,-65,0,-65,0,0
39.9,-81.7088025,10,10,-65,0,-65,0,0
40,-81.70836266,10,10,-65,0,-65,0,0
40.1,-81.70792364,10,10,-65,0,-65,0,0
40.2,-81.70748542,10,10,-65,0,-65,0,0
40.3,-81.70704801,10,10,-65,0,-65,0,0
40.4,-81.70661141,10,10,-65,0,-65,0,0
40.5,-81.70617562,10,10,-65,0,-65,0,0
40.6,-81.70574062,10,10,-65,0,-65,0,0
40.7,-81.70530644,10,10,-65,0,-65,0,0
40.8,-81.70487305,10,10,-65,0,-65,0,0
40.9,-81.70444046,10,10,-65,0,-65,0,0
41,-81.70400867,10,10,-65,0,-65,0,0
41.1,-81.70357768,10,10,-65,0,-65,0,0
41.2,-81.70314748,10,10,-65,0,-65,0,0
41.3,-81.70271808,10,10,-65,0,-65,0,0
41.4,-81.70228947,10,10,-65,0,-65,0,0
41.5,-81.70186165,10,10,-65,0,-65,0,0
41.6,-81.70143462,10,10,-65,0,-65,0,0
41.7,-81.70100838,10,10,-65,0,-65,0,0
41.8,-81.70058293,10,10,-65,0,-65,0,0
41.9,-81.70015826,10,10,-65,0,-65,0,0
42,-81.69973437,10,10,-65,0,-65,0,0
42.1,-81.69931127,10,10,-65,0,-65,0,0
42.2,-81.69888895,10,10,-65,0,-65,0,0
42.3,-81.6984674,10,10,-65,0,-65,0,0
42.4,-81.69804664,10,10,-65,0,-65,0,0
42.5,-81.69762665,10,10,-65,0,-65,0,0
42.6,-81.69720744,10,10,-65,0,-65,0,0
42.7,-81.696789,10,10,-65,0,-65,0,0
42.8,-81.69637134,10,10,-65,0,-65,0,0
42.9,-81.69595444,10,10,-65,0,-65,0,0
43,-81.69553832,10,10,-65,0,-65,0,0
43.1,-81.69512296,10,10,-65,0,-65,0,0
43.2,-81.69470837,10,10,-65,0,-65,0,0
43.3,-81.69429455,10,10,-65,0,-65,0,0
43.4,-81.69388149,10,10,-65,0,-65,0,0
43.5,-81.69346919,10,10,-65,0,-65,0,0
43.6,-81.69305765,10,10,-65,0,-65,0,0
43.7,-81.69264688,10,10,-65,0,-65,0,0
43.8,-81.69223686,10,10,-65,0,-65,0,0
43.9,-81.6918276,10,10,-65,0,-65,0,0
44,-81.69141909,10,10,-65,0,-65,0,0
44.1,-81.69101134,10,10,-65,0,-65,0,0
44.2,-81.69060435,10,10,-65,0,-65,0,0
44.3,-81.6901981,10,10,-65,0,-65,0,0
44.4,-81.68979261,10,10,-65,0,-65,0,0
44.5,-81.68938786,10,10,-65,0,-65,0,0
44.6,-81.68898386,10,10,-65,0,-65,0,0
44.7,-81.68858061,10,10,-65,0,-65,0,0
44.8,-81.6881781,10,10,-65,0,-65,0,0
44.9,-81.68777633,10,10,-65,0,-65,0,0
45,-81.68737531,10,10,-65,0,-65,0,0
45.1,-81.68697503,10,10,-65,0,-65,0,0
45.2,-81.68657549,10,10,-65,0,-65,0,0
45.3,-81.68617668,10,10,-65,0,-65,0,0
45.4,-81.68577861,10,10,-65,0,-65,0,0
45.5,-81.68538128,10,10,-65,0,-65,0,0
45.6,-81.68498468,10,10,-65,0,-65,0,0
45.7,-81.68458882,10,10,-65,0,-65,0,0
45.8,-81.68419368,10,10,-65,0,-65,0,0
45.9,-81.68379928,10,10,-65,0,-65,0,0
46,-81.6834056,10,10,-65,0,-65,0,0
46.1,-81.68301265,10,10,-65,0,-65,0,0
46.2,-81.68262043,10,10,-65,0,-65,0,0
46.3,-81.68222893,10,10,-65,0,-65,0,0
46.4,-81.68183815,10,10,-65,0,-65,0,0
46.5,-81.6814481,10,10,-65,0,-65,0,0
46.6,-81.68105877,10,10,-65,0,-65,0,0
46.7,-81.68067015,10,10,-65,0,-65,0,0
46.8,-81.68028226,10,10,-65,0,-65,0,0
46.9,-81.67989508,10,10,-65,0,-65,0,0
47,-81.67950862,10,10,-65,0,-65,0,0
47.1,-81.67912287,10,10,-65,0,-65,0,0
47.2,-81.67873783,10,10,-65,0,-65,0,0
47.3,-81.67835351,10,10,-65,0,-65,0,0
47.4,-81.67796989,10,10,-65,0,-65,0,0
47.5,-81.67758699,10,10,-65,0,-65,0,0
47.6,-81.67720479,10,10,-65,0,-65,0,0
47.7,-81.6768233,10,10,-65,0,-65,0,0
47.8,-81.67644251,10,10,-65,0,-65,0,0
47.9,-81.67606243,10,10,-65,0,-65,0,0
48,-81.67568305,10,10,-65,0,-65,0,0
48.1,-81.67530437,10,10,-65,0,-65,0,0
48.2,-81.67492639,10,10,-65,0,-65,0,0
48.3,-81.6745491,10,10,-65,0,-65,0,0
48.4,-81.67417252,10,10,-65,0,-65,0,0
48.5,-81.67379663,10,10,-65,0,-65,0,0
48.6,-81.67342144,10,10,-65,0,-65,0,0
48.7,-81.67304694,10,10,-65,0,-65,0,0
48.8,-81.67267313,10,10,-65,0,-65,0,0
48.9,-81.67230002,10,10,-65,0,-65,0,0
49,-81.67192759,10,10,-65,0,-65,0,0
49.1,-81.67155585,10,10,-65,0,-65,0,0
49.2,-81.6711848,10,10,-65,0,-65,0,0
49.3,-81.67081443,10,10,-65,0,-65,0,0
49.4,-81.67044475,10,10,-65,0,-65,0,0
49.5,-81.67007575,10,10,-65,0,-65,0,0
49.6,-81.66970744,10,10,-65,0,-65,0,0
49.7,-81.6693398,10,10,-65,0,-65,0,0
49.8,-81.66897285,10,10,-65,0,-65,0,0
49.9,-81.66860657,10,10,-65,0,-65,0,0
50,-81.66824097,10,10,-65,0,-65,0,0
50.1,-81.66787605,10,10,-65,0,-65,0,0
50.2,-81.6675118,10,10,-65,0,-65,0,0
50.3,-81.66714823,10,10,-65,0,-65,0,0
50.4,-81.66678532,10,10,-65,0,-65,0,0
50.5,-81.66642309,10,10,-65,0,-65,0,0
50.6,-81.66606153,10,10,-65,0,-65,0,0
50.7,-81.66570063,10,10,-65,0,-65,0,0
50.8,-81.66534041,10,10,-65,0,-65,0,0
50.9,-81.66498085,10,10,-65,0,-65,0,0
51,-81.66462195,10,10,-65,0,-65,0,0
51.1,-81.66426372,10,10,-65,0,-65,0,0
51.2,-81.66390615,10,10,-65,0,-65,0,0
51.3,-81.66354924,10,10,-65,0,-65,0,0
51.4,-81.66319299,10,10,-65,0,-65,0,0
51.5,-81.6628374,10,10,-65,0,-65,0,0
51.6,-81.66248247,10,10,-65,0,-65,0,0
51.7,-81.66212819,10,10,-65,0,-65,0,0
51.8,-81.66177457,10,10,-65,0,-65,0,0
51.9,-81.66142161,10,10,-65,0,-65,0,0
52,-81.66106929,10,10,-65,0,-65,0,0
52.1,-81.66071763,10,10,-65,0,-65,0,0
52.2,-81.66036662,10,10,-65,0,-65,0,0
52.3,-81.66001626,10,10,-65,0,-65,0,0
52.4,-81.65966654,10,10,-65,0,-65,0,0
52.5,-81.65931747,10,10,-65,0,-65,0,0
52.6,-81.65896905,10,10,-65,0,-65,0,0
52.7,-81.65862127,10,10,-65,0,-65,0,0
52.8,-81.65827414,10,10,-65,0,-65,0,0
52.9,-81.65792765,10,10,-65,0,-65,0,0
53,-81.65758179,10,10,-65,0,-65,0,0
53.1,-81.65723658,10,10,-65,0,-65,0,0
53.2,-81.65689201,10,10,-65,0,-65,0,0
53.3,-81.65654807,10,10,-65,0,-65,0,0
53.4,-81.65620477,10,10,-65,0,-65,0,0
